# time,flux,err
5.474873000000000320e+04,2.922629999999999839e+00,6.449983000000000244e-01
5.475772000000000116e+04,2.920307999999999904e+00,6.313265999999999600e-01
5.476669999999999709e+04,2.917980000000000018e+00,6.173157999999999701e-01
5.477569000000000233e+04,2.915645000000000042e+00,6.029421999999999837e-01
5.478468000000000029e+04,2.913302999999999976e+00,5.881790999999999547e-01
5.479366000000000349e+04,2.910954999999999959e+00,5.729963000000000140e-01
5.480265000000000146e+04,2.908599999999999852e+00,5.573593999999999493e-01
5.481163999999999942e+04,2.906238000000000099e+00,5.412287999999999544e-01
5.482062000000000262e+04,2.903869999999999951e+00,5.245589000000000501e-01
5.482961000000000058e+04,2.901495000000000157e+00,5.072963999999999807e-01
5.483859999999999854e+04,2.899112999999999829e+00,4.893784999999999941e-01
5.484758000000000175e+04,2.896723999999999855e+00,4.708839000000000219e-01
5.485656999999999971e+04,2.894327999999999790e+00,4.517825999999999786e-01
5.486555999999999767e+04,2.891926000000000219e+00,4.317124999999999990e-01
5.487454000000000087e+04,2.889517000000000113e+00,4.105308999999999764e-01
5.488352999999999884e+04,2.887100000000000222e+00,3.880546000000000273e-01
5.489251999999999680e+04,2.884676999999999936e+00,3.640431000000000084e-01
5.490150000000000000e+04,2.882247000000000003e+00,3.381681999999999744e-01
5.491048999999999796e+04,2.879809999999999981e+00,3.099624999999999742e-01
5.491948000000000320e+04,2.877365000000000173e+00,2.787180000000000213e-01
5.492845999999999913e+04,2.874913999999999970e+00,2.432649000000000061e-01
5.493744999999999709e+04,2.872454999999999981e+00,2.013909000000000116e-01
5.494643000000000029e+04,2.869990000000000041e+00,1.477305999999999897e-01
5.495541999999999825e+04,2.855140000000000011e+00,1.158076999999999995e-01
5.496441000000000349e+04,2.813762000000000096e+00,1.500570999999999988e-01
5.497338999999999942e+04,2.772375999999999951e+00,1.559888000000000108e-01
5.498237999999999738e+04,2.730983000000000160e+00,1.373233000000000092e-01
5.499137000000000262e+04,2.689581000000000000e+00,7.805375000000000507e-02
5.500034999999999854e+04,2.646628000000000203e+00,1.210439999999999988e-01
5.500933999999999651e+04,2.645553000000000043e+00,1.777102999999999877e-01
5.501833000000000175e+04,2.644468999999999959e+00,2.167405000000000026e-01
5.502730999999999767e+04,2.643377000000000088e+00,2.466560999999999892e-01
5.503630000000000291e+04,2.642275999999999847e+00,2.704999000000000153e-01
5.504529000000000087e+04,2.641166999999999820e+00,2.897760999999999809e-01
5.505426999999999680e+04,2.640048999999999868e+00,3.053521000000000152e-01
5.506326000000000204e+04,2.638923000000000130e+00,3.177734999999999865e-01
5.507225000000000000e+04,2.637788000000000022e+00,3.274003999999999803e-01
5.508123000000000320e+04,2.636643999999999988e+00,3.344747000000000137e-01
5.509022000000000116e+04,2.635492000000000168e+00,3.391566999999999776e-01
5.509920999999999913e+04,2.634332000000000118e+00,3.415449999999999875e-01
5.510819000000000233e+04,2.633162000000000003e+00,3.416879999999999917e-01
5.511718000000000029e+04,2.631984000000000101e+00,3.395885000000000153e-01
5.512616999999999825e+04,2.630797999999999970e+00,3.352041000000000048e-01
5.513515000000000146e+04,2.629602999999999913e+00,3.284431999999999907e-01
5.514413999999999942e+04,2.628398999999999930e+00,3.191543000000000019e-01
5.515312999999999738e+04,2.627187000000000161e+00,3.071073000000000275e-01
5.516211000000000058e+04,2.625966000000000022e+00,2.919602000000000031e-01
5.517109999999999854e+04,2.624735999999999958e+00,2.731968000000000174e-01
5.518008999999999651e+04,2.623496999999999968e+00,2.500027000000000221e-01
5.518906999999999971e+04,2.622250000000000192e+00,2.209852999999999956e-01
5.519805999999999767e+04,2.620995000000000186e+00,1.833985999999999950e-01
5.520705000000000291e+04,2.619730000000000114e+00,1.300076000000000009e-01
5.521602999999999884e+04,2.639243000000000006e+00,7.353756000000000181e-02
5.522501999999999680e+04,2.755717999999999890e+00,6.750209999999999544e-02
5.523400000000000000e+04,2.795326999999999895e+00,5.863196999999999853e-02
5.524298999999999796e+04,2.850998000000000143e+00,3.881555999999999895e-02
5.525198000000000320e+04,2.917629999999999946e+00,8.972488000000000685e-02
5.526095999999999913e+04,2.887637999999999927e+00,8.226031000000000315e-02
5.526994999999999709e+04,2.933189000000000046e+00,7.113199000000000605e-02
5.527894000000000233e+04,3.075327999999999840e+00,6.859764999999999613e-02
5.528791999999999825e+04,3.131733000000000100e+00,9.042137000000000091e-02
5.529691000000000349e+04,3.129464000000000024e+00,1.024981999999999976e-01
5.530590000000000146e+04,3.135170000000000012e+00,6.506884000000000279e-02
5.531487999999999738e+04,3.167034000000000127e+00,1.108057999999999960e-01
5.532387000000000262e+04,3.198892999999999986e+00,7.589808000000000665e-02
5.533286000000000058e+04,3.174892999999999965e+00,3.845563999999999927e-02
5.534183999999999651e+04,3.177728000000000108e+00,8.896521999999999764e-02
5.535083000000000175e+04,3.171978000000000186e+00,3.401102999999999765e-02
5.535981999999999971e+04,3.223685000000000134e+00,6.280818000000000512e-02
5.536880000000000291e+04,3.244556000000000218e+00,4.429087000000000302e-02
5.537779000000000087e+04,3.222558999999999951e+00,3.941225000000000284e-02
5.538677999999999884e+04,3.272854999999999848e+00,6.702518000000000364e-02
5.539576000000000204e+04,3.313137999999999916e+00,1.172453999999999996e-01
5.540475000000000000e+04,3.351230999999999849e+00,1.749342999999999870e-01
5.541373999999999796e+04,3.389320000000000110e+00,2.140197000000000072e-01
5.542272000000000116e+04,3.427404000000000117e+00,2.436284999999999978e-01
5.543170999999999913e+04,3.465485000000000149e+00,2.669348000000000276e-01
5.544069999999999709e+04,3.503562000000000065e+00,2.854875000000000052e-01
5.544968000000000029e+04,3.541634999999999867e+00,3.001707000000000125e-01
5.545866999999999825e+04,3.579705999999999833e+00,3.115329000000000015e-01
5.546766000000000349e+04,3.617773000000000128e+00,3.199288000000000132e-01
5.547663999999999942e+04,3.655838000000000143e+00,3.255885000000000029e-01
5.548562999999999738e+04,3.693900000000000183e+00,3.286537999999999959e-01
5.549462000000000262e+04,3.731959999999999944e+00,3.291973999999999734e-01
5.550359999999999854e+04,3.770017999999999869e+00,3.272319000000000200e-01
5.551258999999999651e+04,3.808075000000000099e+00,3.227112999999999787e-01
5.552158000000000175e+04,3.846128999999999909e+00,3.155254000000000114e-01
5.553055999999999767e+04,3.884183000000000163e+00,3.054858999999999769e-01
5.553955000000000291e+04,3.922235000000000138e+00,2.922980000000000023e-01
5.554852999999999884e+04,3.960285999999999973e+00,2.755090000000000039e-01
5.555751999999999680e+04,3.998336999999999808e+00,2.544058000000000153e-01
5.556651000000000204e+04,4.036387000000000391e+00,2.277907000000000126e-01
5.557548999999999796e+04,4.074437999999999782e+00,1.933993999999999991e-01
5.558448000000000320e+04,4.112487999999999921e+00,1.458267000000000035e-01
5.559347000000000116e+04,4.150538000000000061e+00,5.893922000000000050e-02
5.560244999999999709e+04,4.073888000000000176e+00,4.270891000000000270e-02
5.561144000000000233e+04,4.030403999999999876e+00,1.157297999999999938e-01
5.562043000000000029e+04,3.987728000000000161e+00,1.158504000000000062e-01
5.562941000000000349e+04,3.945052000000000003e+00,3.792024000000000089e-02
5.563840000000000146e+04,3.964789999999999814e+00,7.666589000000000043e-02
5.564738999999999942e+04,3.819636000000000031e+00,8.225728000000000206e-02
5.565637000000000262e+04,3.806858000000000075e+00,7.295387000000000399e-02
5.566536000000000058e+04,3.720053000000000054e+00,4.781480999999999926e-02
5.567434999999999854e+04,3.637096999999999802e+00,3.520079999999999737e-02
5.568333000000000175e+04,3.567956999999999823e+00,1.010413000000000006e-01
5.569231999999999971e+04,3.523457000000000061e+00,1.239847000000000032e-01
5.570130999999999767e+04,3.478953999999999880e+00,9.433940999999999855e-02
5.571029000000000087e+04,3.474034000000000066e+00,2.403508999999999854e-02
5.571927999999999884e+04,3.413911000000000140e+00,2.616604000000000152e-02
5.572826999999999680e+04,3.422960999999999920e+00,9.397121999999999420e-02
5.573725000000000000e+04,3.405837000000000003e+00,8.628339999999999621e-02
5.574623999999999796e+04,3.336727999999999916e+00,2.643449999999999966e-02
5.575523000000000320e+04,3.386703999999999937e+00,6.433292999999999651e-02
5.576420999999999913e+04,3.382131999999999916e+00,8.589676999999999729e-02
5.577319999999999709e+04,3.375748999999999889e+00,1.576151000000000080e-01
5.578219000000000233e+04,3.369362000000000190e+00,2.016894999999999938e-01
5.579116999999999825e+04,3.362970999999999933e+00,2.342812999999999979e-01
5.580016000000000349e+04,3.356574999999999864e+00,2.597512000000000154e-01
5.580915000000000146e+04,3.350175999999999821e+00,2.800505999999999829e-01
5.581812999999999738e+04,3.343771999999999966e+00,2.962455999999999978e-01
5.582712000000000262e+04,3.337362999999999857e+00,3.089832000000000134e-01
5.583611000000000058e+04,3.330950000000000077e+00,3.186791999999999958e-01
5.584508999999999651e+04,3.324533000000000182e+00,3.256060000000000065e-01
5.585408000000000175e+04,3.318111000000000033e+00,3.299384000000000206e-01
5.586305999999999767e+04,3.311685000000000212e+00,3.317784999999999762e-01
5.587205000000000291e+04,3.305254000000000136e+00,3.311679000000000150e-01
5.588104000000000087e+04,3.298818999999999946e+00,3.280929000000000206e-01
5.589001999999999680e+04,3.292378999999999944e+00,3.224828000000000139e-01
5.589901000000000204e+04,3.285934000000000133e+00,3.142014000000000196e-01
5.590800000000000000e+04,3.279485000000000205e+00,3.030291999999999986e-01
5.591698000000000320e+04,3.273031000000000024e+00,2.886298999999999948e-01
5.592597000000000116e+04,3.266572000000000031e+00,2.704876999999999976e-01
5.593495999999999913e+04,3.260107999999999784e+00,2.477801000000000031e-01
5.594394000000000233e+04,3.253639999999999866e+00,2.190906999999999993e-01
5.595293000000000029e+04,3.247167000000000137e+00,1.816037000000000068e-01
5.596191999999999825e+04,3.240688000000000013e+00,1.277946000000000082e-01
5.597090000000000146e+04,3.253807999999999812e+00,4.688563999999999926e-02
5.597988999999999942e+04,3.306211999999999929e+00,4.430560000000000054e-02
5.598887999999999738e+04,3.230116999999999905e+00,9.886167999999999345e-02
5.599786000000000058e+04,3.155453000000000063e+00,7.330055000000000598e-02
5.600684999999999854e+04,3.261061000000000210e+00,3.275078000000000017e-02
5.601583999999999651e+04,3.257047000000000025e+00,4.472363000000000033e-02
5.602481999999999971e+04,3.262802000000000202e+00,7.085310999999999693e-02
5.603380999999999767e+04,3.365905000000000147e+00,4.443594000000000016e-02
5.604280000000000291e+04,3.218872000000000178e+00,5.474564999999999987e-02
5.605177999999999884e+04,3.218030000000000168e+00,7.569011000000000489e-02
5.606076999999999680e+04,3.192210000000000214e+00,5.437650000000000122e-02
5.606976000000000204e+04,3.090542000000000122e+00,6.544403999999999499e-02
5.607873999999999796e+04,3.145439000000000096e+00,1.023030000000000050e-01
5.608773000000000320e+04,3.190888999999999864e+00,3.866155000000000286e-02
5.609672000000000116e+04,3.127094000000000040e+00,7.457007999999999692e-02
5.610569999999999709e+04,3.117027999999999910e+00,1.531830000000000136e-01
5.611469000000000233e+04,3.106956999999999969e+00,2.002232999999999929e-01
5.612368000000000029e+04,3.096881000000000217e+00,2.354459000000000135e-01
5.613266000000000349e+04,3.086797999999999931e+00,2.636328000000000005e-01
5.614165000000000146e+04,3.076709999999999834e+00,2.868672999999999917e-01
5.615062999999999738e+04,3.066615000000000091e+00,3.062797999999999909e-01
5.615962000000000262e+04,3.056515000000000093e+00,3.225623000000000240e-01
5.616861000000000058e+04,3.046408000000000005e+00,3.361709999999999976e-01
5.617758999999999651e+04,3.036296000000000106e+00,3.474210999999999827e-01
5.618658000000000175e+04,3.026177000000000117e+00,3.565365999999999813e-01
5.619556999999999971e+04,3.016052000000000177e+00,3.636787000000000214e-01
5.620455000000000291e+04,3.005920999999999843e+00,3.689624000000000237e-01
5.621354000000000087e+04,2.995782999999999863e+00,3.724671999999999983e-01
5.622252999999999884e+04,2.985638999999999932e+00,3.742433000000000010e-01
5.623151000000000204e+04,2.975487999999999911e+00,3.743155000000000232e-01
5.624050000000000000e+04,2.965330999999999939e+00,3.726846999999999799e-01
5.624948999999999796e+04,2.955166999999999877e+00,3.693282999999999983e-01
5.625847000000000116e+04,2.944996999999999865e+00,3.641982999999999748e-01
5.626745999999999913e+04,2.934820000000000206e+00,3.572178999999999771e-01
5.627644999999999709e+04,2.924636000000000013e+00,3.482755000000000156e-01
5.628543000000000029e+04,2.914445000000000174e+00,3.372144000000000252e-01
5.629441999999999825e+04,2.904246999999999801e+00,3.238167000000000129e-01
5.630341000000000349e+04,2.894041999999999781e+00,3.077765000000000084e-01
5.631238999999999942e+04,2.883830999999999811e+00,2.886524999999999785e-01
5.632137999999999738e+04,2.873612000000000055e+00,2.657783000000000229e-01
5.633037000000000262e+04,2.863386000000000209e+00,2.380736999999999992e-01
5.633934999999999854e+04,2.853152000000000132e+00,2.035735999999999934e-01
5.634833999999999651e+04,2.842912000000000106e+00,1.578815000000000079e-01
5.635733000000000175e+04,2.832663999999999849e+00,8.444504999999999373e-02
5.636630999999999767e+04,2.859608000000000150e+00,1.178000000000000019e-01
5.637530000000000291e+04,2.892672999999999828e+00,1.181673000000000029e-01
5.638429000000000087e+04,2.925731999999999999e+00,4.903108999999999940e-02
5.639326999999999680e+04,2.978047000000000111e+00,5.089273999999999881e-02
5.640226000000000204e+04,2.987708000000000030e+00,4.092969999999999942e-02
5.641125000000000000e+04,2.969333999999999918e+00,8.033357000000000692e-02
5.642023000000000320e+04,2.885620999999999992e+00,3.014166000000000067e-02
5.642922000000000116e+04,2.977181999999999995e+00,5.519844000000000139e-02
5.643820999999999913e+04,2.945424000000000042e+00,8.047437000000000340e-02
5.644719000000000233e+04,3.000074000000000130e+00,4.508431000000000244e-02
5.645618000000000029e+04,2.968052000000000135e+00,6.567257999999999429e-02
5.646516000000000349e+04,2.871945000000000192e+00,7.128246000000000582e-02
5.647415000000000146e+04,2.934293999999999958e+00,4.391992000000000118e-02
5.648313999999999942e+04,2.897838999999999832e+00,6.434594999999999898e-02
5.649212000000000262e+04,2.848943999999999921e+00,6.174526999999999793e-02
5.650111000000000058e+04,2.882308000000000092e+00,9.797048999999999341e-02
5.651009999999999854e+04,2.901022000000000212e+00,6.967070000000000207e-02
5.651908000000000175e+04,2.863433000000000117e+00,1.427132000000000123e-01
5.652806999999999971e+04,2.825854000000000088e+00,1.774140999999999913e-01
5.653705999999999767e+04,2.788327000000000222e+00,1.967752999999999863e-01
5.654604000000000087e+04,2.750982000000000038e+00,2.046871000000000107e-01
5.655502999999999884e+04,2.714189000000000185e+00,2.024999000000000104e-01
5.656401999999999680e+04,2.678917999999999910e+00,1.899379999999999957e-01
5.657300000000000000e+04,2.647434000000000065e+00,1.655173000000000061e-01
5.658198999999999796e+04,2.624305000000000110e+00,1.380901999999999963e-01
5.659098000000000320e+04,2.616861000000000104e+00,9.673447000000000295e-02
5.659995999999999913e+04,2.632397000000000098e+00,9.567812000000000539e-02
5.660894999999999709e+04,2.669747000000000092e+00,9.443074999999999386e-02
5.661794000000000233e+04,2.713833999999999858e+00,9.142023000000000510e-02
5.662691999999999825e+04,2.752134999999999998e+00,8.938321999999999934e-02
5.663591000000000349e+04,2.794942999999999955e+00,8.659437000000000384e-02
5.664490000000000146e+04,2.851360999999999812e+00,8.175667000000000351e-02
5.665387999999999738e+04,2.901362000000000219e+00,7.819869000000000125e-02
5.666287000000000262e+04,2.928872000000000142e+00,6.600759000000000487e-02
5.667186000000000058e+04,2.848524999999999974e+00,3.610337000000000268e-02
5.668083999999999651e+04,2.855776999999999788e+00,4.483855999999999953e-02
5.668983000000000175e+04,2.850149000000000044e+00,6.609647000000000439e-02
5.669881999999999971e+04,2.907951999999999870e+00,5.881325999999999915e-02
5.670780000000000291e+04,2.952461000000000002e+00,4.785745000000000277e-02
5.671679000000000087e+04,3.020945000000000213e+00,4.884451000000000070e-02
5.672577999999999884e+04,2.987820999999999838e+00,5.098223000000000338e-02
5.673476000000000204e+04,3.038828999999999780e+00,5.748613000000000334e-02
5.674375000000000000e+04,3.068827000000000194e+00,4.237961999999999979e-02
5.675273000000000320e+04,3.173715000000000064e+00,5.557606999999999825e-02
5.676172000000000116e+04,3.166551999999999811e+00,3.550230000000000052e-02
5.677070999999999913e+04,3.238579999999999792e+00,3.926910000000000123e-02
5.677969000000000233e+04,3.391071000000000168e+00,4.605477999999999655e-02
5.678868000000000029e+04,3.498384000000000160e+00,5.201110999999999929e-02
5.679766999999999825e+04,3.598349999999999937e+00,4.933389999999999997e-02
5.680665000000000146e+04,3.643126000000000086e+00,5.186955000000000038e-02
5.681563999999999942e+04,3.556035000000000057e+00,5.361578000000000177e-02
5.682462999999999738e+04,3.615015000000000089e+00,6.312257000000000284e-02
5.683361000000000058e+04,3.633932999999999858e+00,4.478424999999999767e-02
5.684259999999999854e+04,3.598041999999999963e+00,6.418907000000000085e-02
5.685158999999999651e+04,3.608515000000000139e+00,8.031778000000000528e-02
5.686056999999999971e+04,3.597204000000000068e+00,9.724842000000000208e-02
5.686955999999999767e+04,3.563559999999999839e+00,1.585407000000000066e-01
5.687855000000000291e+04,3.529898999999999898e+00,1.940071999999999908e-01
5.688752999999999884e+04,3.496239000000000097e+00,2.167233000000000076e-01
5.689651999999999680e+04,3.462598999999999982e+00,2.310548000000000046e-01
5.690551000000000204e+04,3.429035999999999973e+00,2.387705999999999995e-01
5.691448999999999796e+04,3.395731000000000055e+00,2.401577000000000017e-01
5.692348000000000320e+04,3.363180999999999976e+00,2.353281000000000123e-01
5.693247000000000116e+04,3.332650999999999808e+00,2.238829999999999987e-01
5.694144999999999709e+04,3.307004000000000055e+00,2.047768000000000088e-01
5.695044000000000233e+04,3.291870999999999992e+00,1.762644999999999906e-01
5.695943000000000029e+04,3.296175999999999995e+00,1.463023999999999991e-01
5.696841000000000349e+04,3.328730999999999884e+00,1.053726999999999997e-01
5.697740000000000146e+04,3.386792999999999942e+00,9.866062000000000443e-02
5.698638999999999942e+04,3.444525000000000059e+00,9.896849000000000618e-02
5.699537000000000262e+04,3.467556000000000083e+00,9.665381000000000666e-02
5.700436000000000058e+04,3.449021000000000114e+00,9.266845999999999417e-02
5.701334999999999854e+04,3.413031000000000148e+00,9.169038999999999662e-02
5.702233000000000175e+04,3.393142999999999798e+00,9.034880000000000688e-02
5.703131999999999971e+04,3.430375000000000174e+00,4.236079000000000233e-02
5.704030999999999767e+04,3.415608000000000199e+00,7.944565000000000654e-02
5.704929000000000087e+04,3.379513999999999907e+00,7.494873999999999981e-02
5.705827999999999884e+04,3.498397999999999897e+00,3.745889000000000163e-02
5.706726000000000204e+04,3.415710999999999942e+00,6.365452000000000610e-02
5.707625000000000000e+04,3.322413000000000061e+00,7.664614000000000149e-02
5.708523999999999796e+04,3.406146000000000118e+00,6.519643999999999440e-02
5.709422000000000116e+04,3.399493999999999794e+00,7.744892999999999916e-02
5.710320999999999913e+04,3.391817000000000082e+00,6.039184000000000219e-02
5.711219999999999709e+04,3.348406999999999911e+00,7.769549000000000594e-02
5.712118000000000029e+04,3.317919999999999980e+00,7.267255999999999716e-02
5.713016999999999825e+04,3.310280999999999807e+00,7.288053999999999366e-02
