# time,flux,errlo,err
5.474873000000000320e+04,1.245673000000000030e+02,5.322632000000000119e+01
5.475772000000000116e+04,1.243974000000000046e+02,5.234185000000000088e+01
5.476669999999999709e+04,1.242270000000000039e+02,5.143986000000000303e+01
5.477569000000000233e+04,1.240562000000000040e+02,5.051937999999999818e+01
5.478468000000000029e+04,1.238849000000000018e+02,4.957938999999999652e+01
5.479366000000000349e+04,1.237130999999999972e+02,4.861874000000000251e+01
5.480265000000000146e+04,1.235408000000000044e+02,4.763618000000000308e+01
5.481163999999999942e+04,1.233679999999999950e+02,4.663031999999999755e+01
5.482062000000000262e+04,1.231948000000000008e+02,4.559958999999999918e+01
5.482961000000000058e+04,1.230210000000000008e+02,4.454227999999999810e+01
5.483859999999999854e+04,1.228468000000000018e+02,4.345642999999999745e+01
5.484758000000000175e+04,1.226721000000000004e+02,4.233984000000000236e+01
5.485656999999999971e+04,1.224967999999999932e+02,4.118999999999999773e+01
5.486555999999999767e+04,1.223211000000000013e+02,4.000403000000000020e+01
5.487454000000000087e+04,1.221449000000000069e+02,3.877861000000000047e+01
5.488352999999999884e+04,1.219681000000000068e+02,3.750986999999999938e+01
5.489251999999999680e+04,1.217908999999999935e+02,3.619322999999999979e+01
5.490150000000000000e+04,1.216132000000000062e+02,3.482325999999999766e+01
5.491048999999999796e+04,1.214348999999999990e+02,3.339338000000000051e+01
5.491948000000000320e+04,1.212562000000000069e+02,3.189553000000000083e+01
5.492845999999999913e+04,1.210768999999999949e+02,3.031961000000000084e+01
5.493744999999999709e+04,1.208969000000000023e+02,2.865274000000000143e+01
5.494643000000000029e+04,1.207160999999999973e+02,2.687799000000000049e+01
5.495541999999999825e+04,1.205335000000000036e+02,2.497235999999999834e+01
5.496441000000000349e+04,1.203460000000000036e+02,2.293819999999999837e+01
5.497338999999999942e+04,1.201445999999999970e+02,2.073791999999999902e+01
5.498237999999999738e+04,1.199056000000000068e+02,1.836955000000000027e+01
5.499137000000000262e+04,1.195708999999999946e+02,1.575207999999999942e+01
5.500034999999999854e+04,1.190215000000000032e+02,1.302997000000000050e+01
5.500933999999999651e+04,1.180731999999999999e+02,1.051309999999999967e+01
5.501833000000000175e+04,1.165550999999999959e+02,8.579304000000000485e+00
5.502730999999999767e+04,1.144521000000000015e+02,8.776996999999999716e+00
5.503630000000000291e+04,1.119416999999999973e+02,8.845926999999999651e+00
5.504529000000000087e+04,1.093071000000000055e+02,7.345766000000000240e+00
5.505426999999999680e+04,1.068850999999999942e+02,6.400495000000000267e+00
5.506326000000000204e+04,1.049981999999999971e+02,8.283953999999999596e+00
5.507225000000000000e+04,1.037729999999999961e+02,1.099484999999999957e+01
5.508123000000000320e+04,1.030841999999999956e+02,1.373202999999999996e+01
5.509022000000000116e+04,1.027219000000000051e+02,1.612077000000000027e+01
5.509920999999999913e+04,1.025233000000000061e+02,1.800321999999999889e+01
5.510819000000000233e+04,1.023962999999999965e+02,1.950167000000000073e+01
5.511718000000000029e+04,1.022973999999999961e+02,2.069722000000000151e+01
5.512616999999999825e+04,1.022083999999999975e+02,2.164001000000000019e+01
5.513515000000000146e+04,1.021222999999999956e+02,2.236205999999999960e+01
5.514413999999999942e+04,1.020366000000000071e+02,2.288426000000000116e+01
5.515312999999999738e+04,1.019505999999999943e+02,2.322010999999999825e+01
5.516211000000000058e+04,1.018640000000000043e+02,2.337765999999999877e+01
5.517109999999999854e+04,1.017767999999999944e+02,2.336052000000000106e+01
5.518008999999999651e+04,1.016889999999999930e+02,2.316828999999999894e+01
5.518906999999999971e+04,1.016006000000000000e+02,2.279654000000000025e+01
5.519805999999999767e+04,1.015117999999999938e+02,2.223627000000000109e+01
5.520705000000000291e+04,1.014230000000000018e+02,2.147270999999999930e+01
5.521602999999999884e+04,1.013363999999999976e+02,2.048312999999999917e+01
5.522501999999999680e+04,1.012583000000000055e+02,1.923267999999999844e+01
5.523400000000000000e+04,1.012074000000000069e+02,1.766637000000000057e+01
5.524298999999999796e+04,1.012330999999999932e+02,1.579414000000000051e+01
5.525198000000000320e+04,1.014549999999999983e+02,1.347139999999999915e+01
5.526095999999999913e+04,1.021154999999999973e+02,1.092811000000000021e+01
5.526994999999999709e+04,1.035698000000000008e+02,8.384740000000000748e+00
5.527894000000000233e+04,1.060709999999999980e+02,6.295077000000000034e+00
5.528791999999999825e+04,1.094528999999999996e+02,4.592203999999999731e+00
5.529691000000000349e+04,1.132039000000000044e+02,3.219489999999999963e+00
5.530590000000000146e+04,1.169317000000000064e+02,2.291157000000000110e+00
5.531487999999999738e+04,1.204129999999999967e+02,4.325669999999999682e+00
5.532387000000000262e+04,1.238341000000000065e+02,4.303656000000000148e+00
5.533286000000000058e+04,1.275921000000000021e+02,2.670682999999999918e+00
5.534183999999999651e+04,1.315144999999999982e+02,3.400843000000000060e+00
5.535083000000000175e+04,1.349387999999999863e+02,5.167313000000000045e+00
5.535981999999999971e+04,1.375201999999999884e+02,5.029393999999999920e+00
5.536880000000000291e+04,1.394274000000000058e+02,4.015817000000000192e+00
5.537779000000000087e+04,1.408916000000000111e+02,5.703232999999999997e+00
5.538677999999999884e+04,1.419421000000000106e+02,3.184641000000000055e+00
5.539576000000000204e+04,1.426187999999999931e+02,2.588385999999999854e+00
5.540475000000000000e+04,1.431837999999999909e+02,3.810283000000000087e+00
5.541373999999999796e+04,1.439422000000000139e+02,1.758928999999999965e+00
5.542272000000000116e+04,1.450261999999999887e+02,2.010534999999999961e+00
5.543170999999999913e+04,1.463968999999999880e+02,2.418241999999999781e+00
5.544069999999999709e+04,1.480903999999999883e+02,3.500134000000000079e+00
5.544968000000000029e+04,1.501973000000000127e+02,5.454851999999999812e+00
5.545866999999999825e+04,1.526638000000000090e+02,7.792347000000000357e+00
5.546766000000000349e+04,1.553460000000000036e+02,1.072011000000000003e+01
5.547663999999999942e+04,1.581276000000000010e+02,1.348752999999999957e+01
5.548562999999999738e+04,1.609480000000000075e+02,1.585867000000000004e+01
5.549462000000000262e+04,1.637819000000000074e+02,1.770144000000000162e+01
5.550359999999999854e+04,1.666197999999999979e+02,1.914433000000000007e+01
5.551258999999999651e+04,1.694586999999999932e+02,2.027049999999999841e+01
5.552158000000000175e+04,1.722975999999999885e+02,2.113052000000000064e+01
5.553055999999999767e+04,1.751363000000000056e+02,2.175600000000000023e+01
5.553955000000000291e+04,1.779748999999999910e+02,2.216679999999999851e+01
5.554852999999999884e+04,1.808131999999999948e+02,2.237474999999999881e+01
5.555751999999999680e+04,1.836513999999999953e+02,2.238551999999999964e+01
5.556651000000000204e+04,1.864893999999999892e+02,2.219939000000000107e+01
5.557548999999999796e+04,1.893271000000000015e+02,2.181130999999999887e+01
5.558448000000000320e+04,1.921639999999999873e+02,2.121020000000000039e+01
5.559347000000000116e+04,1.949986000000000104e+02,2.037721000000000160e+01
5.560244999999999709e+04,1.978255000000000052e+02,1.928229999999999933e+01
5.561144000000000233e+04,2.006282999999999959e+02,1.787751000000000090e+01
5.562043000000000029e+04,2.033625999999999863e+02,1.613021000000000171e+01
5.562941000000000349e+04,2.059167999999999950e+02,1.398419999999999952e+01
5.563840000000000146e+04,2.080489000000000033e+02,1.147790999999999961e+01
5.564738999999999942e+04,2.093507999999999925e+02,8.899663999999999575e+00
5.565637000000000262e+04,2.093923000000000059e+02,6.707124000000000308e+00
5.566536000000000058e+04,2.080751999999999953e+02,5.069186000000000192e+00
5.567434999999999854e+04,2.057899999999999920e+02,6.223378000000000299e+00
5.568333000000000175e+04,2.029968000000000075e+02,5.797342999999999691e+00
5.569231999999999971e+04,1.998446999999999889e+02,3.227189999999999781e+00
5.570130999999999767e+04,1.961812999999999931e+02,3.932685999999999904e+00
5.571029000000000087e+04,1.919208999999999889e+02,3.438273000000000135e+00
5.571927999999999884e+04,1.872717000000000098e+02,3.461075999999999819e+00
5.572826999999999680e+04,1.824171000000000049e+02,2.848498000000000197e+00
5.573725000000000000e+04,1.776260000000000048e+02,2.987458000000000169e+00
5.574623999999999796e+04,1.732386999999999944e+02,5.377563999999999567e+00
5.575523000000000320e+04,1.694675000000000011e+02,6.561863999999999919e+00
5.576420999999999913e+04,1.663572000000000060e+02,4.269436999999999927e+00
5.577319999999999709e+04,1.638891999999999882e+02,2.767850999999999839e+00
5.578219000000000233e+04,1.620240000000000009e+02,2.415760000000000129e+00
5.579116999999999825e+04,1.606667999999999950e+02,4.782657000000000380e+00
5.580016000000000349e+04,1.596283999999999992e+02,3.629166000000000114e+00
5.580915000000000146e+04,1.588097999999999956e+02,3.051625000000000032e+00
5.581812999999999738e+04,1.581741000000000099e+02,4.761158000000000001e+00
5.582712000000000262e+04,1.576442999999999870e+02,7.005138999999999783e+00
5.583611000000000058e+04,1.571568000000000040e+02,9.697200999999999738e+00
5.584508999999999651e+04,1.566805999999999983e+02,1.251992000000000083e+01
5.585408000000000175e+04,1.562057000000000073e+02,1.511772000000000027e+01
5.586305999999999767e+04,1.557299999999999898e+02,1.714261000000000124e+01
5.587205000000000291e+04,1.552532999999999959e+02,1.872991999999999990e+01
5.588104000000000087e+04,1.547760000000000105e+02,1.997804000000000002e+01
5.589001999999999680e+04,1.542982000000000085e+02,2.094727999999999923e+01
5.589901000000000204e+04,1.538200999999999965e+02,2.167507000000000161e+01
5.590800000000000000e+04,1.533414999999999964e+02,2.218519999999999825e+01
5.591698000000000320e+04,1.528626999999999896e+02,2.249249000000000009e+01
5.592597000000000116e+04,1.523834999999999980e+02,2.260521999999999920e+01
5.593495999999999913e+04,1.519038999999999930e+02,2.252630999999999872e+01
5.594394000000000233e+04,1.514241000000000099e+02,2.225373000000000090e+01
5.595293000000000029e+04,1.509439999999999884e+02,2.178020000000000067e+01
5.596191999999999825e+04,1.504638999999999953e+02,2.109216999999999942e+01
5.597090000000000146e+04,1.499849000000000103e+02,2.016770999999999958e+01
5.597988999999999942e+04,1.495096000000000060e+02,1.897225999999999857e+01
5.598887999999999738e+04,1.490457000000000107e+02,1.745054999999999978e+01
5.599786000000000058e+04,1.486120999999999981e+02,1.559984999999999999e+01
5.600684999999999854e+04,1.482489999999999952e+02,1.329795999999999978e+01
5.601583999999999651e+04,1.480200000000000102e+02,1.074693000000000076e+01
5.602481999999999971e+04,1.479548000000000059e+02,8.202256000000000213e+00
5.603380999999999767e+04,1.479238000000000000e+02,6.176598000000000255e+00
5.604280000000000291e+04,1.476681000000000097e+02,4.528163000000000160e+00
5.605177999999999884e+04,1.472238000000000113e+02,4.905740999999999907e+00
5.606076999999999680e+04,1.470700999999999965e+02,2.818929999999999936e+00
5.606976000000000204e+04,1.473958000000000084e+02,2.119864999999999888e+00
5.607873999999999796e+04,1.477692000000000121e+02,2.304853000000000041e+00
5.608773000000000320e+04,1.477800000000000011e+02,2.665973000000000148e+00
5.609672000000000116e+04,1.472565999999999917e+02,1.921812000000000076e+00
5.610569999999999709e+04,1.461390000000000100e+02,1.965140000000000109e+00
5.611469000000000233e+04,1.445452999999999975e+02,3.316282000000000174e+00
5.612368000000000029e+04,1.427536000000000058e+02,2.054359999999999964e+00
5.613266000000000349e+04,1.412428999999999917e+02,3.466883999999999855e+00
5.614165000000000146e+04,1.402899999999999920e+02,4.925355999999999845e+00
5.615062999999999738e+04,1.395970000000000084e+02,4.601981999999999573e+00
5.615962000000000262e+04,1.388446999999999889e+02,6.821744999999999948e+00
5.616861000000000058e+04,1.380232000000000028e+02,9.489471999999999241e+00
5.617758999999999651e+04,1.372021000000000015e+02,1.249970000000000070e+01
5.618658000000000175e+04,1.364074999999999989e+02,1.525292999999999921e+01
5.619556999999999971e+04,1.356341999999999928e+02,1.749708000000000041e+01
5.620455000000000291e+04,1.348726000000000056e+02,1.931774000000000058e+01
5.621354000000000087e+04,1.341162999999999954e+02,2.081918999999999897e+01
5.622252999999999884e+04,1.333617999999999881e+02,2.206616000000000000e+01
5.623151000000000204e+04,1.326076999999999941e+02,2.309991000000000128e+01
5.624050000000000000e+04,1.318534999999999968e+02,2.394807000000000130e+01
5.624948999999999796e+04,1.310988999999999862e+02,2.462985000000000113e+01
5.625847000000000116e+04,1.303438999999999908e+02,2.515877000000000052e+01
5.626745999999999913e+04,1.295884000000000071e+02,2.554433999999999827e+01
5.627644999999999709e+04,1.288324000000000069e+02,2.579300999999999888e+01
5.628543000000000029e+04,1.280759999999999934e+02,2.590870999999999924e+01
5.629441999999999825e+04,1.273190000000000026e+02,2.589322999999999908e+01
5.630341000000000349e+04,1.265615999999999985e+02,2.574633000000000038e+01
5.631238999999999942e+04,1.258037000000000063e+02,2.546573000000000064e+01
5.632137999999999738e+04,1.250452999999999975e+02,2.504694999999999894e+01
5.633037000000000262e+04,1.242864000000000004e+02,2.448288000000000153e+01
5.633934999999999854e+04,1.235270000000000010e+02,2.376315999999999917e+01
5.634833999999999651e+04,1.227673999999999950e+02,2.287311000000000050e+01
5.635733000000000175e+04,1.220079999999999956e+02,2.179184000000000054e+01
5.636630999999999767e+04,1.212510000000000048e+02,2.048909000000000091e+01
5.637530000000000291e+04,1.205023999999999944e+02,1.891925000000000168e+01
5.638429000000000087e+04,1.197793000000000063e+02,1.709868000000000166e+01
5.639326999999999680e+04,1.191255000000000024e+02,1.488258000000000081e+01
5.640226000000000204e+04,1.186390999999999991e+02,1.242778000000000027e+01
5.641125000000000000e+04,1.184967999999999932e+02,9.913456000000000046e+00
5.642023000000000320e+04,1.189150999999999954e+02,7.634572000000000358e+00
5.642922000000000116e+04,1.200070999999999941e+02,6.519910000000000316e+00
5.643820999999999913e+04,1.216430000000000007e+02,6.052755999999999581e+00
5.644719000000000233e+04,1.234720999999999975e+02,3.465395000000000003e+00
5.645618000000000029e+04,1.250200999999999993e+02,2.644448999999999828e+00
5.646516000000000349e+04,1.259078999999999979e+02,2.403976000000000113e+00
5.647415000000000146e+04,1.261872999999999934e+02,3.481240000000000112e+00
5.648313999999999942e+04,1.262225999999999999e+02,1.731614999999999904e+00
5.649212000000000262e+04,1.262747999999999990e+02,2.289025999999999783e+00
5.650111000000000058e+04,1.263011999999999944e+02,3.241568000000000005e+00
5.651009999999999854e+04,1.260039000000000016e+02,1.784281000000000006e+00
5.651908000000000175e+04,1.250944999999999965e+02,2.330159000000000091e+00
5.652806999999999971e+04,1.238627999999999929e+02,3.005285999999999902e+00
5.653705999999999767e+04,1.227091000000000065e+02,1.661275000000000057e+00
5.654604000000000087e+04,1.216949000000000041e+02,2.092430999999999930e+00
5.655502999999999884e+04,1.208449999999999989e+02,3.470107000000000053e+00
5.656401999999999680e+04,1.201046999999999940e+02,4.590037999999999840e+00
5.657300000000000000e+04,1.191546000000000021e+02,5.784035000000000259e+00
5.658198999999999796e+04,1.176821000000000055e+02,8.373174000000000561e+00
5.659098000000000320e+04,1.156718999999999937e+02,1.062933999999999912e+01
5.659995999999999913e+04,1.133096000000000032e+02,1.191412000000000049e+01
5.660894999999999709e+04,1.108068999999999988e+02,1.252994999999999948e+01
5.661794000000000233e+04,1.083447000000000031e+02,1.257548000000000066e+01
5.662691999999999825e+04,1.060995999999999952e+02,1.205718000000000067e+01
5.663591000000000349e+04,1.042864000000000004e+02,1.089486999999999917e+01
5.664490000000000146e+04,1.031709000000000032e+02,8.838425000000000864e+00
5.665387999999999738e+04,1.030148999999999972e+02,5.147598999999999592e+00
5.666287000000000262e+04,1.039389999999999930e+02,1.894854999999999956e+00
5.667186000000000058e+04,1.057925000000000040e+02,3.384020000000000028e+00
5.668083999999999651e+04,1.082044999999999959e+02,2.553379000000000065e+00
5.668983000000000175e+04,1.108632000000000062e+02,2.349902999999999853e+00
5.669881999999999971e+04,1.136768000000000001e+02,2.435411999999999910e+00
5.670780000000000291e+04,1.164470000000000027e+02,3.884284000000000070e+00
5.671679000000000087e+04,1.186260999999999939e+02,1.261576000000000031e+00
5.672577999999999884e+04,1.197737000000000052e+02,1.432450999999999919e+00
5.673476000000000204e+04,1.201413000000000011e+02,1.455221000000000098e+00
5.674375000000000000e+04,1.205456999999999965e+02,1.126808999999999950e+00
5.675273000000000320e+04,1.216178000000000026e+02,1.374473999999999974e+00
5.676172000000000116e+04,1.234351999999999947e+02,1.936679000000000039e+00
5.677070999999999913e+04,1.256487999999999943e+02,1.225476999999999927e+00
5.677969000000000233e+04,1.279629999999999939e+02,1.154851999999999990e+00
5.678868000000000029e+04,1.303837000000000046e+02,1.424129999999999896e+00
5.679766999999999825e+04,1.332196000000000140e+02,1.326383000000000090e+00
5.680665000000000146e+04,1.367215999999999951e+02,1.271147000000000027e+00
5.681563999999999942e+04,1.408367000000000075e+02,1.890271000000000035e+00
5.682462999999999738e+04,1.455484999999999900e+02,1.170636000000000010e+00
5.683361000000000058e+04,1.510968000000000018e+02,9.261082999999999954e-01
5.684259999999999854e+04,1.573454000000000121e+02,1.773949999999999916e+00
5.685158999999999651e+04,1.634205000000000041e+02,2.096404999999999852e+00
5.686056999999999971e+04,1.682615999999999872e+02,1.943481000000000014e+00
5.686955999999999767e+04,1.713283999999999878e+02,2.187844999999999818e+00
5.687855000000000291e+04,1.729593000000000131e+02,1.742642000000000024e+00
5.688752999999999884e+04,1.738317000000000121e+02,2.831363000000000074e+00
5.689651999999999680e+04,1.741656000000000120e+02,1.994520999999999988e+00
5.690551000000000204e+04,1.739764999999999873e+02,3.185668999999999862e+00
5.691448999999999796e+04,1.733154999999999859e+02,4.676273000000000124e+00
5.692348000000000320e+04,1.721475000000000080e+02,6.663454999999999906e+00
5.693247000000000116e+04,1.704710000000000036e+02,9.373314999999999841e+00
5.694144999999999709e+04,1.684063999999999908e+02,1.176467000000000063e+01
5.695044000000000233e+04,1.661160000000000139e+02,1.364077999999999946e+01
5.695943000000000029e+04,1.637298000000000116e+02,1.480123000000000033e+01
5.696841000000000349e+04,1.613385000000000105e+02,1.536603000000000030e+01
5.697740000000000146e+04,1.590201999999999884e+02,1.539648000000000039e+01
5.698638999999999942e+04,1.568708000000000027e+02,1.489840000000000053e+01
5.699537000000000262e+04,1.550335000000000036e+02,1.406588999999999956e+01
5.700436000000000058e+04,1.537187000000000126e+02,1.312054999999999971e+01
5.701334999999999854e+04,1.531947999999999865e+02,1.166431000000000040e+01
5.702233000000000175e+04,1.537039000000000044e+02,9.464394000000000418e+00
5.703131999999999971e+04,1.552725000000000080e+02,5.872023999999999688e+00
5.704030999999999767e+04,1.575084999999999980e+02,2.682081000000000159e+00
5.704929000000000087e+04,1.596257999999999981e+02,2.376344000000000012e+00
5.705827999999999884e+04,1.608800999999999988e+02,3.940890000000000004e+00
5.706726000000000204e+04,1.611382999999999868e+02,2.319789000000000101e+00
5.707625000000000000e+04,1.608463000000000136e+02,3.435414000000000190e+00
5.708523999999999796e+04,1.605108999999999924e+02,2.579458999999999946e+00
5.709422000000000116e+04,1.603130999999999915e+02,1.972760000000000069e+00
5.710320999999999913e+04,1.602139999999999986e+02,2.261838000000000015e+00
5.711219999999999709e+04,1.601973999999999876e+02,2.941787000000000152e+00
5.712118000000000029e+04,1.599918999999999869e+02,1.784929999999999906e+00
5.713016999999999825e+04,1.593075000000000045e+02,2.038285999999999820e+00
